197109,100860
197119,100771
197129,100717
197139,100619
197149,100576
197159,100529
197169,100509
197179,100467
197189,100486
197199,100461
197209,100483
197219,100474
197229,100500
197239,100501
197249,100527
197259,100512
197269,100541
197279,100557
197289,100600
197299,100633
197309,100659
197321,100666
197331,100720
197341,100730
197351,100772
197361,100766
197371,100805
197381,100759
197391,100797
197401,100776
197411,100812
197421,100794
197431,100802
197441,100769
197451,100780
197461,100782
197471,100792
197481,100827
197491,100862
197501,100867
197511,100910
197521,100912
197531,100935
197541,100965
197551,100994
197561,100982
197571,101025
197581,101034
197591,101062
197601,101057
197611,101097
197621,101080
197631,101116
197641,101145
197651,101169
197661,101200
197671,101228
197681,101242
197691,101261
197701,101277
197711,101292
197721,101313
197731,101320
197741,101346
197751,101334
197761,101344
197771,101382
197781,101402
197791,101415
197801,101449
197811,101456
197821,101464
197831,101479
197841,101485
197851,101454
197861,101378
197871,101318
197881,101229
197891,101136
197901,101057
197911,100963
197921,100894
197931,100833
197941,100815
197951,100782
197961,100766
197971,100730
197981,100747
197991,100737
198001,100744
198011,100800
198021,100812
198031,100827
198041,100847
198053,100876
198063,100903
198073,100894
198083,100942
198093,100942
198103,100994
198113,100981
198123,100987
198133,101000
198143,101035
198153,101018
198163,101025
198173,101024
198183,101021
198193,101035
198203,101063
198213,101059
198223,101074
198233,101068
198243,101102
198253,101103
198263,101105
198273,101114
198283,101156
198293,101126
198303,101163
198313,101182
198323,101184
198333,101200
198343,101233
198353,101224
198363,101245
198373,101229
198383,101274
198393,101284
198403,101319
198413,101332
198423,101351
198433,101362
198443,101402
198453,101395
198463,101435
198473,101450
198483,101489
198493,101512
198503,101528
198513,101522
198523,101550
198533,101539
198543,101575
198553,101546
198563,101567
198573,101513
198583,101446
198593,101358
198603,101287
198613,101188
198623,101099
198633,101013
198643,100970
198653,100904
198663,100910
198673,100870
198683,100884
198693,100828
198703,100860
198713,100834
198723,100875
198733,100861
198743,100896
198753,100926
198763,100974
198773,100960
198783,100993
198795,101008
198805,101067
198815,101046
198825,101104
198835,101101
198845,101140
198855,101125
198865,101155
198875,101147
198885,101180
198895,101150
198905,101186
198915,101150
198925,101179
198935,101145
198945,101219
198955,101186
198965,101241
198975,101232
198985,101278
198995,101254
199005,101296
199015,101314
199025,101377
199035,101356
199045,101422
199055,101395
199065,101448
199075,101434
199085,101476
199095,101453
199105,101511
199115,101492
199125,101545
199135,101532
199145,101583
199155,101565
199165,101621
199175,101598
199185,101648
199195,101623
199205,101688
199215,101676
199225,101704
199235,101689
199245,101750
199255,101730
199265,101777
199275,101717
199285,101713
199295,101601
199305,101533
199315,101390
199325,101318
199335,101212
199345,101192
199355,101087
199365,101076
199375,101010
199385,101011
199395,100958
199405,100999
199415,100942
199425,101000
199435,100994
199445,101035
199455,100987
199465,101036
199475,101004
199485,101099
199495,101061
199505,101126
199515,101140
199527,101211
199537,101226
199547,101285
199557,101252
199567,101314
199577,101291
199587,101306
199597,101270
199607,101315
199617,101276
199627,101340
199637,101295
199647,101315
199657,101285
199667,101332
199677,101334
199687,101405
199697,101362
199707,101451
199717,101417
199727,101477
199737,101431
199747,101480
199757,101456
199767,101530
199777,101534
199787,101578
199797,101559
199807,101630
199817,101622
199827,101663
199837,101654
199847,101707
199857,101674
199867,101735
199877,101712
199887,101770
199897,101761
199907,101826
199917,101804
199927,101880
199937,101872
199947,101939
199957,101927
199967,102008
199977,102000
199987,102081
199997,102037
200007,102046
200017,101959
200027,101881
200037,101736
200047,101665
200057,101510
200067,101472
200077,101340
200087,101344
200097,101255
200107,101288
200117,101236
200127,101272
200137,101243
200147,101294
200157,101266
200167,101331
200177,101302
200187,101393
200197,101349
200207,101413
200217,101374
200227,101454
200237,101470
200247,101547
200257,101540
200267,101613
200279,101607
200289,101670
200299,101650
200309,101714
200319,101671
200329,101689
200339,101655
200349,101696
200359,101661
200369,101714
200379,101688
200389,101721
200399,101679
200409,101730
200419,101702
200429,101778
200439,101759
200449,101830
200459,101814
200469,101878
200479,101858
200489,101936
200499,101925
200509,102004
200519,101980
200529,102065
200539,102042
200549,102113
200559,102086
200569,102128
200579,102105
200589,102178
200599,102141
200609,102218
200619,102193
200629,102278
200639,102262
200649,102291
200659,102278
200669,102338
200679,102296
200689,102347
200699,102241
200709,102204
200719,102047
200729,102013
200739,101889
200749,101861
200759,101734
200769,101740
200779,101639
200789,101671
200799,101596
200809,101629
200819,101573
200829,101643
200839,101588
200849,101651
200859,101606
200869,101660
200879,101625
200889,101663
200899,101614
200909,101686
200919,101678
200929,101746
200939,101698
200949,101778
200959,101748
200969,101836
200979,101821
200989,101897
200999,101866
201011,101932
201021,101898
201031,101934
201041,101892
201051,101926
201061,101879
201071,101930
201081,101873
201091,101940
201101,101901
201111,101965
201121,101917
201131,101979
201141,101940
201151,102009
201161,102003
201171,102104
201181,102090
201191,102177
201201,102155
201211,102237
201221,102210
201231,102302
201241,102258
201251,102319
201261,102307
201271,102370
201281,102343
201291,102409
201301,102380
201311,102442
201321,102396
201331,102472
201341,102435
201351,102500
201361,102428
201371,102439
201381,102268
201391,102231
201401,102054
201411,102029
201421,101895
201431,101875
201441,101765
201451,101791
201461,101717
201471,101756
201481,101702
201491,101772
201501,101722
201511,101808
201521,101746
201531,101791
201541,101727
201551,101818
201561,101771
201571,101838
201581,101784
201591,101874
201601,101832
201611,101922
201621,101886
201631,101952
201641,101922
201651,101988
201661,101946
201671,102007
201681,101945
201691,102031
201701,101957
201711,102062
201721,102003
201731,102074
201743,102021
201753,102101
201763,102031
201773,102115
201783,102062
201793,102140
201803,102075
201813,102142
201823,102082
201833,102171
201843,102131
201853,102186
201863,102127
201873,102224
201883,102198
201893,102301
201903,102246
201913,102360
201923,102316
201933,102390
201943,102353
201953,102421
201963,102394
201973,102460
201983,102420
201993,102505
202003,102471
202013,102545
202023,102496
202033,102533
202043,102381
202053,102369
202063,102148
202073,102115
202083,101962
202093,101934
202103,101796
202113,101814
202123,101701
202133,101726
202143,101646
202153,101727
202163,101669
202173,101717
202183,101666
202193,101746
202203,101691
202213,101760
202223,101713
202233,101800
202243,101761
202253,101845
202263,101815
202273,101921
202283,101881
202293,101965
202303,101934
202313,101999
202323,101928
202333,102018
202343,101953
202353,102036
202363,101954
202373,102005
202383,101939
202393,102024
202403,101965
202413,102042
202423,101995
202433,102070
202443,102027
202453,102128
202463,102053
202473,102136
202485,102100
202495,102176
202505,102137
202515,102212
202525,102165
202535,102247
202545,102188
202555,102278
202565,102210
202575,102322
202585,102279
202595,102351
202605,102292
202615,102395
202625,102370
202635,102491
202645,102440
202655,102538
202665,102492
202675,102576
202685,102544
202695,102620
202705,102528
202715,102529
202725,102350
202735,102322
202745,102170
202755,102128
202765,101953
202775,101923
202785,101785
202795,101768
202805,101658
202815,101674
202825,101598
202835,101652
202845,101565
202855,101666
202865,101589
202875,101637
202885,101604
202895,101678
202905,101617
202915,101679
202925,101636
202935,101728
202945,101682
202955,101770
202965,101738
202975,101824
202985,101783
202995,101873
203005,101807
203015,101892
203025,101824
203035,101891
203045,101826
203055,101882
203065,101801
203075,101865
203085,101805
203095,101899
203105,101825
203115,101916
203125,101863
203135,101952
203145,101880
203155,101972
203165,101912
203175,102027
203185,101959
203195,102064
203205,102021
203217,102114
203227,102089
203237,102152
203247,102101
203257,102185
203267,102122
203277,102193
203287,102143
203297,102231
203307,102198
203317,102287
203327,102242
203337,102330
203347,102272
203357,102368
203367,102335
203377,102413
203387,102320
203397,102325
203407,102152
203417,102124
203427,101929
203437,101906
203447,101759
203457,101720
203467,101590
203477,101571
203487,101472
203497,101481
203507,101393
203517,101418
203527,101329
203537,101351
203547,101289
203557,101378
203567,101289
203577,101341
203587,101302
203597,101375
203607,101321
203617,101420
203627,101362
203637,101452
203647,101417
203657,101508
203667,101469
203677,101572
203687,101509
203697,101578
203707,101533
203717,101584
203727,101531
203737,101600
203747,101537
203757,101616
203767,101543
203777,101608
203787,101546
203797,101606
203807,101551
203817,101624
203827,101569
203837,101663
203847,101596
203857,101702
203867,101656
203877,101753
203887,101690
203897,101800
203907,101752
203917,101865
203927,101834
203937,101929
203949,101886
203959,101971
203969,101907
203979,102004
203989,101957
203999,102036
204009,102000
204019,102097
204029,102055
204039,102164
204049,102137
204059,102211
204069,102107
204079,102103
204089,101938
204099,101902
204109,101724
204119,101694
204129,101538
204139,101526
204149,101371
204159,101364
204169,101246
204179,101269
204189,101183
204199,101221
204209,101152
204219,101225
204229,101169
204239,101231
204249,101143
204259,101210
204269,101164
204279,101235
204289,101191
204299,101288
204309,101267
204319,101370
204329,101332
204339,101433
204349,101377
204359,101443
204369,101421
204379,101488
204389,101429
204399,101484
204409,101422
204419,101498
204429,101463
204439,101505
204449,101460
204459,101525
204469,101492
204479,101565
204489,101522
204499,101576
204509,101547
204519,101619
204529,101573
204539,101641
204549,101595
204559,101663
204569,101634
204579,101714
204589,101670
204599,101754
204609,101721
204619,101819
204629,101760
204639,101887
204649,101854
204659,101954
204669,101924
204679,102018
204691,101998
204701,102073
204711,102025
204721,102091
204731,102013
204741,102012
204751,101855
204761,101792
204771,101641
204781,101612
204791,101444
204801,101394
204811,101249
204821,101258
204831,101154
204841,101196
204851,101119
204861,101171
204871,101112
204881,101184
204891,101152
204901,101215
204911,101165
204921,101220
204931,101166
204941,101251
204951,101217
204961,101309
204971,101286
204981,101341
204991,101318
205001,101410
205011,101364
205021,101441
205031,101397
205041,101442
205051,101432
205061,101471
205071,101405
205081,101463
205091,101401
205101,101452
205111,101396
205121,101472
205131,101432
205141,101486
205151,101447
205161,101536
205171,101514
205181,101589
205191,101538
205201,101609
205211,101582
205221,101662
205231,101600
205241,101681
205251,101649
205261,101714
205271,101679
205281,101741
205291,101716
205301,101798
205311,101789
205321,101875
205331,101839
205341,101935
205351,101898
205361,101979
205371,101946
205381,102016
205391,101889
205401,101905
205411,101727
205423,101669
205433,101513
205443,101471
205453,101316
205463,101277
205473,101160
205483,101145
205493,101028
205503,101064
205513,101001
205523,101022
205533,100955
205543,100983
205553,100928
205563,100995
205573,100959
205583,101020
205593,100979
205603,101049
205613,101032
205623,101118
205633,101112
205643,101185
205653,101192
205663,101233
205673,101212
205683,101309
205693,101267
205703,101341
205713,101268
205723,101322
205733,101282
205743,101342
205753,101298
205763,101358
205773,101289
205783,101368
205793,101322
205803,101394
205813,101350
205823,101418
205833,101373
205843,101437
205853,101396
205863,101477
205873,101454
205883,101535
205893,101497
205903,101595
205913,101559
205923,101646
205933,101624
205943,101697
205953,101665
205963,101722
205973,101699
205983,101770
205993,101733
206003,101805
206013,101763
206023,101849
206033,101825
206043,101894
206053,101860
206063,101901
206073,101768
206083,101680
206093,101509
206103,101458
206113,101299
206123,101272
206133,101134
206143,101132
206153,101027
206165,101045
206175,100960
206185,100965
206195,100923
206205,100966
206215,100904
206225,100942
206235,100913
206245,100967
206255,100939
206265,100998
206275,100937
206285,101011
206295,100993
206305,101083
206315,101090
206325,101178
206335,101171
206345,101244
206355,101232
206365,101291
206375,101232
206385,101287
206395,101244
206405,101309
206415,101262
206425,101312
206435,101273
206445,101340
206455,101296
206465,101350
206475,101309
206485,101355
206495,101333
206505,101385
206515,101342
206525,101419
206535,101402
206545,101456
206555,101431
206565,101505
206575,101469
206585,101563
206595,101530
206605,101600
206615,101585
206625,101656
206635,101629
206645,101717
206655,101677
206665,101753
206675,101741
206685,101791
206695,101765
206705,101847
206715,101814
206725,101884
206735,101850
206745,101914
206755,101833
206765,101834
206775,101678
206785,101606
206795,101448
206805,101387
206815,101235
206825,101202
206835,101048
206845,101014
206855,100918
206865,100934
206875,100839
206885,100904
206895,100855
206907,100908
206917,100878
206927,100908
206937,100869
206947,100921
206957,100857
206967,100920
206977,100890
206987,100962
206997,100947
207007,101041
207017,101020
207027,101095
207037,101057
207047,101137
207057,101124
207067,101201
207077,101161
207087,101195
207097,101182
207107,101229
207117,101175
207127,101240
207137,101195
207147,101241
207157,101199
207167,101261
207177,101234
207187,101279
207197,101245
207207,101314
207217,101275
207227,101310
207237,101306
207247,101374
207257,101343
207267,101402
207277,101393
207287,101479
207297,101459
207307,101509
207317,101489
207327,101553
207337,101528
207347,101583
207357,101573
207367,101644
207377,101620
207387,101686
207397,101653
207407,101740
207417,101728
207427,101783
207437,101741
207447,101755
207457,101651
207467,101601
207477,101439
207487,101358
207497,101192
207507,101111
207517,100951
207527,100876
207537,100735
207547,100715
207557,100618
207567,100608
207577,100521
207587,100538
207597,100477
207607,100536
207617,100507
207627,100573
207637,100541
207647,100579
207659,100574
207669,100657
207679,100621
207689,100690
207699,100681
207709,100720
207719,100692
207729,100763
207739,100713
207749,100803
207759,100767
207769,100804
207779,100776
207789,100819
207799,100791
207809,100854
207819,100820
207829,100872
207839,100839
207849,100892
207859,100859
207869,100919
207879,100879
207889,100940
207899,100917
207909,100969
207919,100980
207929,101035
207939,101037
207949,101072
207959,101064
207969,101108
207979,101084
207989,101133
207999,101121
208009,101187
208019,101182
208029,101231
208039,101242
208049,101306
208059,101305
208069,101377
208079,101366
208089,101437
208099,101418
208109,101463
208119,101424
208129,101389
208139,101248
208149,101157
208159,101010
208169,100897
208179,100792
208189,100679
208199,100577
208209,100521
208219,100405
208229,100373
208239,100309
208249,100294
208259,100243
208269,100242
208279,100221
208289,100228
208299,100238
208309,100264
208319,100239
208329,100277
208339,100299
208349,100344
208359,100389
208369,100446
208379,100484
208389,100521
208401,100539
208411,100577
208421,100574
208431,100598
208441,100590
208451,100610
208461,100607
208471,100618
208481,100616
208491,100635
208501,100643
208511,100647
208521,100651
208531,100684
208541,100720
208551,100759
208561,100758
208571,100789
208581,100805
208591,100825
208601,100845
208611,100883
208621,100892
208631,100930
208641,100950
208651,100979
208661,101010
208671,101051
208681,101073
208691,101090
208701,101078
208711,101127
208721,101116
208731,101148
208741,101176
208751,101209
208761,101253
208771,101293
208781,101311
208791,101349
208801,101328
208811,101254
208821,101118
208831,100998
208841,100859
208851,100743
208861,100626
208871,100527
208881,100446
208891,100371
208901,100294
208911,100240
208921,100199
208931,100157
208941,100135
208951,100109
208961,100124
208971,100135
208981,100161
208991,100142
209001,100172
209011,100181
209021,100221
209031,100245
209041,100313
209051,100347
209061,100398
209071,100435
209081,100470
209091,100466
209101,100509
209111,100518
209121,100537
209133,100546
209143,100553
209153,100543
209163,100551
209173,100592
209183,100596
209193,100588
209203,100593
209213,100583
209223,100622
209233,100616
209243,100619
209253,100629
209263,100667
209273,100683
209283,100716
209293,100751
209303,100802
209313,100830
209323,100870
209333,100883
209343,100936
209353,100934
209363,100986
209373,101007
209383,101020
209393,101063
209403,101093
209413,101104
209423,101142
209433,101141
209443,101188
209453,101180
209463,101231
209473,101230
209483,101260
209493,101268
209503,101276
209513,101176
209523,101091
209533,100945
209543,100853
209553,100717
209563,100612
209573,100495
209583,100390
209593,100283
209603,100211
209613,100137
209623,100107
209633,100048
209643,100068
209653,100047
209663,100081
209673,100034
209683,100068
209693,100078
209703,100109
209713,100090
209723,100120
209733,100130
209743,100182
209753,100196
209763,100241
209773,100259
209783,100301
209793,100311
209803,100338
209813,100339
209823,100378
209833,100390
209843,100413
209853,100395
209863,100460
209875,100429
209885,100475
209895,100429
209905,100458
209915,100448
209925,100487
209935,100461
209945,100485
209955,100479
209965,100559
209975,100576
209985,100627
209995,100614
210005,100650
210015,100668
210025,100729
210035,100715
210045,100790
210055,100786
210065,100858
210075,100855
210085,100910
210095,100901
210105,100969
210115,100982
210125,101028
210135,101022
210145,101100
210155,101092
210165,101166
210175,101128
210185,101165
210195,101076
210205,100995
210215,100820
210225,100736
210235,100589
210245,100491
210255,100370
210265,100304
210275,100166
210285,100127
210295,100019
210305,100001
210315,99934
210325,99947
210335,99892
210345,99953
210355,99928
210365,99975
210375,99937
210385,99993
210395,99981
210405,100040
210415,100049
210425,100106
210435,100108
210445,100176
210455,100158
210465,100221
210475,100209
210485,100275
210495,100250
210505,100302
210515,100314
210525,100372
210535,100349
210545,100389
210555,100370
210565,100391
210575,100371
210585,100430
210595,100432
210605,100465
210617,100452
210627,100519
210637,100457
210647,100543
210657,100530
210667,100584
210677,100571
210687,100626
210697,100641
210707,100723
210717,100701
210727,100755
210737,100738
210747,100791
210757,100777
210767,100871
210777,100867
210787,100922
210797,100938
210807,101001
210817,101014
210827,101096
210837,101093
210847,101175
210857,101170
210867,101206
210877,101144
210887,101131
210897,100976
210907,100852
210917,100695
210927,100596
210937,100451
210947,100360
210957,100221
210967,100186
210977,100057
210987,100040
210997,99965
211007,99980
211017,99912
211027,99937
211037,99902
211047,99951
211057,99923
211067,100007
211077,99988
211087,100045
211097,100059
211107,100128
211117,100153
211127,100218
211137,100211
211147,100287
211157,100270
211167,100326
211177,100315
211187,100366
211197,100327
211207,100369
211217,100319
211227,100361
211237,100339
211247,100371
211257,100349
211267,100406
211277,100390
211287,100439
211297,100414
211307,100469
211317,100456
211327,100539
211337,100514
211347,100591
211359,100567
211369,100633
211379,100619
211389,100686
211399,100678
211409,100744
211419,100709
211429,100785
211439,100745
211449,100842
211459,100811
211469,100883
211479,100875
211489,100935
211499,100929
211509,101029
211519,101014
211529,101094
211539,101092
211549,101157
211559,101065
211569,101040
211579,100878
211589,100799
211599,100600
211609,100531
211619,100366
211629,100304
211639,100157
211649,100142
211659,100002
211669,99998
211679,99915
211689,99941
211699,99869
211709,99895
211719,99849
211729,99920
211739,99871
211749,99938
211759,99942
211769,100015
211779,100017
211789,100123
211799,100087
211809,100179
211819,100147
211829,100239
211839,100207
211849,100279
211859,100246
211869,100314
211879,100258
211889,100320
211899,100276
211909,100335
211919,100294
211929,100373
211939,100318
211949,100367
211959,100318
211969,100391
211979,100334
211989,100405
211999,100366
212009,100425
212019,100383
212029,100480
212039,100445
212049,100533
212059,100528
212069,100617
212079,100601
212091,100654
212101,100612
212111,100692
212121,100644
212131,100712
212141,100686
212151,100760
212161,100755
212171,100856
212181,100846
212191,100920
212201,100854
212211,100850
212221,100695
212231,100642
212241,100476
212251,100419
212261,100263
212271,100182
212281,100032
212291,99966
212301,99846
212311,99823
212321,99700
212331,99710
212341,99644
212351,99656
212361,99572
212371,99629
212381,99565
212391,99646
212401,99592
212411,99651
212421,99647
212431,99744
212441,99730
212451,99815
212461,99788
212471,99874
212481,99833
212491,99924
212501,99883
212511,99965
212521,99925
212531,99999
212541,99954
212551,100035
212561,99978
212571,100047
212581,99993
212591,100073
212601,100000
212611,100064
212621,100031
212631,100099
212641,100043
212651,100145
212661,100100
212671,100182
212681,100143
212691,100247
212701,100200
212711,100301
212721,100263
212731,100343
212741,100300
212751,100385
212761,100353
212771,100439
212781,100423
212791,100539
212801,100526
212811,100627
212823,100603
212833,100704
212843,100631
212853,100669
212863,100495
212873,100456
212883,100229
212893,100184
212903,99988
212913,99926
212923,99738
212933,99709
212943,99526
212953,99523
212963,99396
212973,99431
212983,99348
212993,99421
213003,99352
213013,99419
213023,99375
213033,99453
213043,99390
213053,99463
213063,99410
213073,99494
213083,99461
213093,99573
213103,99554
213113,99656
213123,99628
213133,99728
213143,99665
213153,99741
213163,99691
213173,99769
213183,99724
213193,99795
213203,99735
213213,99812
213223,99752
213233,99840
213243,99765
213253,99846
213263,99795
213273,99887
213283,99833
213293,99923
213303,99876
213313,99970
213323,99931
213333,100031
213343,100003
213353,100078
213363,100033
213373,100129
213383,100096
213393,100172
213403,100111
213413,100204
213423,100165
213433,100277
213443,100245
213453,100308
213463,100297
213473,100380
213483,100350
213493,100383
213503,100240
213513,100188
213523,99987
213533,99922
213543,99746
213553,99692
213563,99522
213575,99477
213585,99321
213595,99316
213605,99195
213615,99224
213625,99127
213635,99190
213645,99088
213655,99161
213665,99090
213675,99177
213685,99112
213695,99183
213705,99155
213715,99241
213725,99228
213735,99343
213745,99324
213755,99437
213765,99432
213775,99541
213785,99515
213795,99603
213805,99566
213815,99647
213825,99582
213835,99637
213845,99571
213855,99657
213865,99596
213875,99648
213885,99562
213895,99659
213905,99599
213915,99695
213925,99674
213935,99769
213945,99696
213955,99800
213965,99738
213975,99847
213985,99791
213995,99883
214005,99824
214015,99925
214025,99910
214035,99985
214045,99957
214055,100047
214065,100018
214075,100113
214085,100067
214095,100152
214105,100127
214115,100211
214125,100180
214135,100275
214145,100236
214155,100284
214165,100132
214175,100092
214185,99913
214195,99838
214205,99626
214215,99551
214225,99353
214235,99288
214245,99129
214255,99101
214265,98950
214275,98955
214285,98873
214295,98923
214305,98867
214315,98935
214325,98877
214337,98949
214347,98910
214357,98973
214367,98928
214377,99024
214387,98966
214397,99067
214407,99038
214417,99143
214427,99145
214437,99258
214447,99200
214457,99299
214467,99242
214477,99327
214487,99282
214497,99380
214507,99308
214517,99392
214527,99341
214537,99438
214547,99378
214557,99478
214567,99411
214577,99503
214587,99453
214597,99557
214607,99506
214617,99598
214627,99530
214637,99611
214647,99555
214657,99646
214667,99592
214677,99695
214687,99649
214697,99739
214707,99709
214717,99806
214727,99757
214737,99870
214747,99825
214757,99924
214767,99872
214777,99971
214787,99909
214797,100021
214807,99973
214817,100055
214827,99919
214837,99915
214847,99722
214857,99665
214867,99463
214877,99391
214887,99185
214897,99138
214907,98924
214917,98889
214927,98725
214937,98712
214947,98581
214957,98599
214967,98500
214977,98562
214987,98495
214997,98596
215007,98535
215017,98613
215027,98588
215037,98704
215047,98662
215057,98777
215069,98744
215079,98850
215089,98819
215099,98932
215109,98879
215119,98992
215129,98947
215139,99044
215149,98989
215159,99103
215169,99065
215179,99137
215189,99062
215199,99129
215209,99069
215219,99143
215229,99094
215239,99190
215249,99161
215259,99267
215269,99234
215279,99332
215289,99287
215299,99396
215309,99363
215319,99430
215329,99375
215339,99469
215349,99406
215359,99536
215369,99490
215379,99605
215389,99562
215399,99672
215409,99645
215419,99762
215429,99761
215439,99867
215449,99831
215459,99906
215469,99883
215479,99971
215489,99923
215499,99948
215509,99793
215519,99744
215529,99549
215539,99489
215549,99297
215559,99265
215569,99060
215579,99020
215589,98853
215599,98844
215609,98720
215619,98748
215629,98634
215639,98677
215649,98618
215659,98663
215669,98610
215679,98694
215689,98651
215699,98699
215709,98678
215719,98776
215729,98763
215739,98890
215749,98880
215759,98976
215769,98994
215779,99110
215789,99093
215799,99208
215809,99159
215821,99249
215831,99174
215841,99270
215851,99202
215861,99293
215871,99239
215881,99312
215891,99252
215901,99350
215911,99322
215921,99423
215931,99356
215941,99443
215951,99389
215961,99474
215971,99447
215981,99530
215991,99527
216001,99653
216011,99621
216021,99738
216031,99716
216041,99832
216051,99786
216061,99879
216071,99837
216081,99944
216091,99916
216101,100030
216111,99999
216121,100095
216131,100051
216141,100176
216151,100134
216161,100254
216171,100245
216181,100316
216191,100257
216201,100276
216211,100093
216221,100020
216231,99778
216241,99709
216251,99509
216261,99456
216271,99300
216281,99285
216291,99147
216301,99169
216311,99072
216321,99133
216331,99056
216341,99105
216351,99041
216361,99109
216371,99060
216381,99156
216391,99111
216401,99203
216411,99201
216421,99316
216431,99315
216441,99411
216451,99416
216461,99485
216471,99465
216481,99560
216491,99538
216501,99603
216511,99562
216521,99644
216531,99628
216541,99709
216551,99654
216561,99753
216573,99691
216583,99777
216593,99720
216603,99791
216613,99757
216623,99843
216633,99774
216643,99866
216653,99824
216663,99893
216673,99887
216683,99980
216693,99938
216703,100004
216713,99987
216723,100115
216733,100100
216743,100184
216753,100171
216763,100245
216773,100200
216783,100306
216793,100286
216803,100384
216813,100350
216823,100457
216833,100447
216843,100543
216853,100533
216863,100633
216873,100580
216883,100657
216893,100567
216903,100546
216913,100358
216923,100265
216933,100045
216943,99957
216953,99775
216963,99717
216973,99546
216983,99514
216993,99382
217003,99395
217013,99309
217023,99352
217033,99294
217043,99333
217053,99282
217063,99335
217073,99294
217083,99383
217093,99355
217103,99448
217113,99422
217123,99547
217133,99553
217143,99668
217153,99626
217163,99722
217173,99690
217183,99783
217193,99720
217203,99803
217213,99742
217223,99813
217233,99761
217243,99837
217253,99798
217263,99860
217273,99815
217283,99890
217293,99890
217303,99928
217313,99893
217323,99971
217335,99943
217345,100015
217355,99970
217365,100065
217375,100018
217385,100120
217395,100084
217405,100169
217415,100156
217425,100254
217435,100203
217445,100282
217455,100234
217465,100324
217475,100311
217485,100410
217495,100416
217505,100526
217515,100514
217525,100638
217535,100613
217545,100717
217555,100702
217565,100775
217575,100655
217585,100654
217595,100468
217605,100363
217615,100152
217625,100090
217635,99903
217645,99848
217655,99683
217665,99629
217675,99507
217685,99488
217695,99368
217705,99393
217715,99319
217725,99378
217735,99325
217745,99409
217755,99358
217765,99417
217775,99399
217785,99464
217795,99430
217805,99537
217815,99535
217825,99650
217835,99629
217845,99732
217855,99714
217865,99829
217875,99795
217885,99892
217895,99838
217905,99898
217915,99838
217925,99921
217935,99873
217945,99921
217955,99873
217965,99940
217975,99911
217985,100002
217995,99948
218005,100038
218015,99980
218025,100048
218035,100030
218045,100119
218055,100080
218065,100157
218077,100155
218087,100238
218097,100227
218107,100328
218117,100317
218127,100414
218137,100359
218147,100468
218157,100413
218167,100524
218177,100497
218187,100589
218197,100561
218207,100643
218217,100641
218227,100754
218237,100747
218247,100865
218257,100825
218267,100938
218277,100873
218287,100873
218297,100707
218307,100617
218317,100399
218327,100275
218337,100088
218347,100030
218357,99863
218367,99814
218377,99690
218387,99672
218397,99565
218407,99568
218417,99469
218427,99495
218437,99444
218447,99490
218457,99436
218467,99523
218477,99490
218487,99575
218497,99553
218507,99655
218517,99647
218527,99724
218537,99721
218547,99840
218557,99839
218567,99906
218577,99854
218587,99925
218597,99892
218607,99976
218617,99940
218627,99990
218637,99973
218647,100038
218657,100007
218667,100061
218677,99992
218687,100049
218697,99990
218707,100064
218717,100015
218727,100085
218737,100078
218747,100143
218757,100118
218767,100188
218777,100175
218787,100256
218797,100271
218807,100368
218817,100349
218829,100454
218839,100408
218849,100502
218859,100451
218869,100548
218879,100523
218889,100586
218899,100591
218909,100696
218919,100672
218929,100759
218939,100733
218949,100829
218959,100824
218969,100924
218979,100906
218989,100977
218999,100972
219009,101049
219019,101039
219029,101110
219039,101086
219049,101155
219059,101062
219069,101003
219079,100813
219089,100697
219099,100478
219109,100406
219119,100211
219129,100116
219139,99956
219149,99936
219159,99797
219169,99783
219179,99703
219189,99710
219199,99666
219209,99700
219219,99665
219229,99732
219239,99697
219249,99790
219259,99745
219269,99806
219279,99785
219289,99870
219299,99847
219309,99943
219319,99928
219329,100036
219339,100014
219349,100103
219359,100060
219369,100131
219379,100070
219389,100127
219399,100073
219409,100126
219419,100061
219429,100127
219439,100076
219449,100141
219459,100097
219469,100146
219479,100154
219489,100232
219499,100191
219509,100264
219519,100254
219529,100320
219539,100291
219549,100346
219559,100348
219569,100420
219581,100408
219591,100501
219601,100490
219611,100595
219621,100577
219631,100649
219641,100615
219651,100690
219661,100657
219671,100746
219681,100720
219691,100778
219701,100761
219711,100832
219721,100836
219731,100903
219741,100886
219751,100976
219761,100945
219771,101030
219781,101015
219791,101049
219801,100923
219811,100839
219821,100630
219831,100522
219841,100345
219851,100250
219861,100072
219871,100025
219881,99866
219891,99815
219901,99696
219911,99693
219921,99605
219931,99609
219941,99555
219951,99595
219961,99519
219971,99600
219981,99553
219991,99620
220001,99594
220011,99677
220021,99645
220031,99736
220041,99732
220051,99814
220061,99798
220071,99892
220081,99881
220091,99936
220101,99912
220111,99994
220121,99972
220131,100009
220141,99980
220151,100025
220161,99964
220171,100009
220181,99962
220191,100014
220201,99990
220211,100048
220221,100013
220231,100089
220241,100080
220251,100154
220261,100119
220271,100184
220281,100164
220291,100229
220301,100239
220311,100318
220321,100318
220333,100394
220343,100406
220353,100489
220363,100471
220373,100562
220383,100555
220393,100615
220403,100601
220413,100686
220423,100669
220433,100748
220443,100736
220453,100803
220463,100779
220473,100856
220483,100885
220493,100964
220503,100957
220513,100981
220523,100872
220533,100779
220543,100571
220553,100463
220563,100299
220573,100173
220583,100002
220593,99942
220603,99803
220613,99764
220623,99654
220633,99650
220643,99568
220653,99612
220663,99554
220673,99623
220683,99584
220693,99646
220703,99606
220713,99662
220723,99629
220733,99687
220743,99681
220753,99765
220763,99771
220773,99875
220783,99857
220793,99961
220803,99968
220813,100055
220823,100028
220833,100074
220843,100045
220853,100084
220863,100049
220873,100068
220883,100053
220893,100106
220903,100082
220913,100123
220923,100109
220933,100147
220943,100124
220953,100171
220963,100150
220973,100205
220983,100163
220993,100228
221003,100201
221013,100278
221023,100269
221033,100342
221043,100361
221053,100452
221063,100459
221073,100552
221085,100556
221095,100614
221105,100580
221115,100679
221125,100654
221135,100723
221145,100689
221155,100781
221165,100775
221175,100863
221185,100874
221195,100927
221205,100906
221215,100895
221225,100777
221235,100683
221245,100505
221255,100384
221265,100214
221275,100116
221285,99973
221295,99894
221305,99789
221315,99762
221325,99687
221335,99680
221345,99607
221355,99651
221365,99604
221375,99641
221385,99581
221395,99639
221405,99601
221415,99650
221425,99640
221435,99715
221445,99726
221455,99789
221465,99799
221475,99891
221485,99864
221495,99932
221505,99943
221515,99988
221525,99966
221535,100015
221545,99998
221555,100025
221565,99981
221575,100029
221585,100005
221595,100041
221605,100026
221615,100075
221625,100046
221635,100092
221645,100069
221655,100109
221665,100104
221675,100130
221685,100118
221695,100168
221705,100162
221715,100206
221725,100198
221735,100241
221745,100275
221755,100335
221765,100331
221775,100404
221785,100394
221795,100435
221805,100459
221815,100514
221825,100545
221837,100595
221847,100626
221857,100675
221867,100693
221877,100726
221887,100679
221897,100609
221907,100463
221917,100351
221927,100170
221937,100059
221947,99899
221957,99815
221967,99662
221977,99594
221987,99515
221997,99466
222007,99416
222017,99403
222027,99378
222037,99403
222047,99375
222057,99372
222067,99368
222077,99374
222087,99369
222097,99415
222107,99442
222117,99505
222127,99539
222137,99570
222147,99589
222157,99640
222167,99644
222177,99695
222187,99701
222197,99730
222207,99724
222217,99747
222227,99767
222237,99789
222247,99783
222257,99793
222267,99775
222277,99809
222287,99786
222297,99809
222307,99811
222317,99847
222327,99864
222337,99899
222347,99921
222357,99945
222367,99930
222377,99967
222387,99964
222397,100018
222407,100021
222417,100065
222427,100077
222437,100109
222447,100137
222457,100175
222467,100177
222477,100235
222487,100268
222497,100322
222507,100336
222517,100370
222527,100376
222537,100405
222547,100388
222557,100316
222567,100202
222579,100072
222589,99938
222599,99829
222609,99693
222619,99584
222629,99447
222639,99355
222649,99260
222659,99225
222669,99145
222679,99143
222689,99094
222699,99082
222709,99061
222719,99076
222729,99095
222739,99112
222749,99124
222759,99152
222769,99171
222779,99219
222789,99249
222799,99300
222809,99336
222819,99369
222829,99401
222839,99448
222849,99475
222859,99510
222869,99502
222879,99511
222889,99506
222899,99518
222909,99519
222919,99525
222929,99521
222939,99537
222949,99534
222959,99558
222969,99574
222979,99584
222989,99616
222999,99645
223009,99672
223019,99698
223029,99729
223039,99756
223049,99779
223059,99795
223069,99790
223079,99822
223089,99848
223099,99860
223109,99903
223119,99919
223129,99947
223139,99995
223149,100038
223159,100059
223169,100084
223179,100116
223189,100135
223199,100164
223209,100140
223219,100081
223229,99980
223239,99845
223249,99719
223259,99591
223269,99472
223279,99373
223289,99270
223299,99162
223309,99090
223321,99010
223331,98938
223341,98886
223351,98840
223361,98822
223371,98797
223381,98788
223391,98793
223401,98791
223411,98827
223421,98848
223431,98869
223441,98908
223451,98931
223461,98987
223471,99035
223481,99065
223491,99119
223501,99138
223511,99198
223521,99206
223531,99232
223541,99237
223551,99292
223561,99280
223571,99303
223581,99302
223591,99335
223601,99323
223611,99340
223621,99314
223631,99323
223641,99343
223651,99354
223661,99368
223671,99404
223681,99423
223691,99463
223701,99474
223711,99510
223721,99554
223731,99591
223741,99585
223751,99616
223761,99625
223771,99674
223781,99676
223791,99728
223801,99728
223811,99784
223821,99790
223831,99841
223841,99876
223851,99919
223861,99954
223871,99976
223881,99989
223891,100011
223901,99975
223911,99895
223921,99775
223931,99629
223941,99483
223951,99377
223961,99219
223971,99136
223981,99018
223991,98926
224001,98826
224011,98761
224021,98697
224031,98680
224041,98627
224051,98629
224061,98624
224073,98649
224083,98637
224093,98638
224103,98627
224113,98689
224123,98712
224133,98743
224143,98762
224153,98840
224163,98855
224173,98912
224183,98904
224193,98925
224203,98923
224213,98978
224223,98982
224233,99038
224243,99050
224253,99083
224263,99082
224273,99108
224283,99102
224293,99128
224303,99123
224313,99157
224323,99130
224333,99177
224343,99161
224353,99197
224363,99216
224373,99242
224383,99238
224393,99265
224403,99284
224413,99341
224423,99336
224433,99402
224443,99390
224453,99432
224463,99427
224473,99487
224483,99485
224493,99534
224503,99536
224513,99588
224523,99624
224533,99684
224543,99690
224553,99762
224563,99776
224573,99831
224583,99828
224593,99867
224603,99806
224613,99753
224623,99621
224633,99506
224643,99329
224653,99230
224663,99070
224673,98970
224683,98829
224693,98734
224703,98584
224713,98515
224723,98432
224733,98393
224743,98367
224753,98348
224763,98309
224773,98362
224783,98316
224793,98360
224803,98348
224813,98399
224823,98393
224835,98452
224845,98459
224855,98516
224865,98535
224875,98597
224885,98631
224895,98670
224905,98666
224915,98737
224925,98714
224935,98783
224945,98739
224955,98780
224965,98770
224975,98813
224985,98808
224995,98861
225005,98844
225015,98877
225025,98854
225035,98917
225045,98899
225055,98957
225065,98961
225075,99022
225085,99027
225095,99088
225105,99086
225115,99144
225125,99141
225135,99187
225145,99182
225155,99236
225165,99226
225175,99278
225185,99289
225195,99354
225205,99345
225215,99436
225225,99443
225235,99529
225245,99517
225255,99586
225265,99558
225275,99617
225285,99609
225295,99679
225305,99676
225315,99726
225325,99728
225335,99785
225345,99691
225355,99623
225365,99470
225375,99343
225385,99170
225395,99063
225405,98895
225415,98805
225425,98643
225435,98590
225445,98454
225455,98409
225465,98313
225475,98311
225485,98260
225495,98295
225505,98272
225515,98312
225525,98279
225535,98348
225545,98339
225555,98412
225565,98384
225575,98472
225587,98474
225597,98559
225607,98565
225617,98652
225627,98645
225637,98709
225647,98689
225657,98771
225667,98732
225677,98792
225687,98782
225697,98809
225707,98768
225717,98798
225727,98767
225737,98831
225747,98833
225757,98900
225767,98881
225777,98944
225787,98943
225797,99007
225807,99006
225817,99082
225827,99056
225837,99099
225847,99088
225857,99150
225867,99151
225877,99213
225887,99199
225897,99282
225907,99280
225917,99355
225927,99347
225937,99435
225947,99421
225957,99490
225967,99484
225977,99563
225987,99552
225997,99613
226007,99627
226017,99698
226027,99695
226037,99768
226047,99771
226057,99838
226067,99833
226077,99870
226087,99837
226097,99814
226107,99652
226117,99556
226127,99360
226137,99264
226147,99097
226157,99019
226167,98861
226177,98795
226187,98661
226197,98624
226207,98491
226217,98479
226227,98397
226237,98420
226247,98365
226257,98418
226267,98390
226277,98466
226287,98446
226297,98511
226307,98508
226317,98580
226329,98600
226339,98674
226349,98676
226359,98769
226369,98759
226379,98833
226389,98813
226399,98884
226409,98849
226419,98894
226429,98868
226439,98922
226449,98859
226459,98905
226469,98900
226479,98967
226489,98935
226499,99022
226509,98997
226519,99045
226529,99036
226539,99095
226549,99079
226559,99135
226569,99114
226579,99172
226589,99159
226599,99237
226609,99239
226619,99301
226629,99289
226639,99342
226649,99333
226659,99415
226669,99410
226679,99490
226689,99482
226699,99571
226709,99585
226719,99645
226729,99645
226739,99724
226749,99714
226759,99799
226769,99766
226779,99839
226789,99839
226799,99916
226809,99901
226819,99959
226829,99908
226839,99882
226849,99709
226859,99588
226869,99389
226879,99281
226889,99106
226899,98990
226909,98839
226919,98784
226929,98642
226939,98605
226949,98489
226959,98495
226969,98417
226979,98468
226989,98434
226999,98488
227009,98438
227019,98525
227029,98517
227039,98614
227049,98598
227059,98696
227071,98698
227081,98784
227091,98781
227101,98867
227111,98851
227121,98933
227131,98902
227141,98963
227151,98944
227161,99018
227171,99013
227181,99059
227191,99020
227201,99093
227211,99037
227221,99111
227231,99091
227241,99132
227251,99125
227261,99177
227271,99170
227281,99227
227291,99205
227301,99305
227311,99300
227321,99371
227331,99377
227341,99458
227351,99455
227361,99532
227371,99494
227381,99571
227391,99547
227401,99624
227411,99638
227421,99714
227431,99714
227441,99802
227451,99794
227461,99909
227471,99892
227481,99985
227491,99962
227501,100046
227511,100059
227521,100137
227531,100102
227541,100197
227551,100131
227561,100103
227571,99915
227581,99774
227591,99576
227601,99453
227611,99248
227621,99180
227631,99018
227641,98961
227651,98825
227661,98801
227671,98722
227681,98721
227691,98643
227701,98675
227711,98645
227721,98721
227731,98666
227741,98718
227751,98690
227761,98753
227771,98750
227781,98870
227791,98869
227801,98979
227813,98991
227823,99083
227833,99061
227843,99144
227853,99143
227863,99200
227873,99176
227883,99252
227893,99219
227903,99301
227913,99253
227923,99307
227933,99264
227943,99318
227953,99284
227963,99388
227973,99344
227983,99434
227993,99394
228003,99468
228013,99443
228023,99518
228033,99485
228043,99565
228053,99553
228063,99637
228073,99624
228083,99738
228093,99730
228103,99797
228113,99786
228123,99852
228133,99822
228143,99903
228153,99891
228163,99984
228173,99970
228183,100071
228193,100072
228203,100148
228213,100162
228223,100241
228233,100221
228243,100344
228253,100307
228263,100394
228273,100293
228283,100241
228293,100012
228303,99875
228313,99639
228323,99528
228333,99325
228343,99269
228353,99107
228363,99061
228373,98931
228383,98938
228393,98834
228403,98875
228413,98800
228423,98858
228433,98831
228443,98892
228453,98831
228463,98931
228473,98878
228483,98979
228493,98940
228503,99046
228513,99051
228523,99177
228533,99168
228543,99280
228555,99273
228565,99346
228575,99311
228585,99368
228595,99325
228605,99407
228615,99343
228625,99404
228635,99350
228645,99415
228655,99405
228665,99471
228675,99416
228685,99460
228695,99408
228705,99484
228715,99441
228725,99534
228735,99489
228745,99577
228755,99562
228765,99651
228775,99616
228785,99694
228795,99685
228805,99767
228815,99713
228825,99806
228835,99772
228845,99860
228855,99837
228865,99922
228875,99893
228885,99966
228895,99947
228905,100043
228915,100015
228925,100102
228935,100084
228945,100182
228955,100168
228965,100260
228975,100220
228985,100295
228995,100177
229005,100089
229015,99902
229025,99771
229035,99535
229045,99461
229055,99259
229065,99195
229075,99031
229085,99017
229095,98868
229105,98885
229115,98777
229125,98811
229135,98747
229145,98780
229155,98725
229165,98782
229175,98704
229185,98791
229195,98773
229205,98865
229215,98845
229225,98947
229235,98940
229245,99044
229255,99032
229265,99180
229275,99133
229285,99258
229295,99226
229305,99307
229317,99257
229327,99322
229337,99260
229347,99319
229357,99265
229367,99317
229377,99250
229387,99323
229397,99280
229407,99362
229417,99333
229427,99407
229437,99361
229447,99436
229457,99389
229467,99489
229477,99437
229487,99539
229497,99498
229507,99599
229517,99546
229527,99670
229537,99632
229547,99743
229557,99709
229567,99809
229577,99778
229587,99910
229597,99895
229607,99980
229617,99937
229627,100024
229637,99985
229647,100128
229657,100078
229667,100181
229677,100137
229687,100143
229697,99950
229707,99840
229717,99610
229727,99498
229737,99297
229747,99235
229757,99063
229767,99004
229777,98839
229787,98818
229797,98687
229807,98706
229817,98619
229827,98662
229837,98582
229847,98647
229857,98591
229867,98678
229877,98634
229887,98710
229897,98664
229907,98766
229917,98753
229927,98847
229937,98797
229947,98915
229957,98884
229967,99000
229977,98954
229987,99041
229997,98997
230007,99101
230017,99064
230027,99151
230037,99111
230047,99213
230059,99154
230069,99246
230079,99180
230089,99278
230099,99194
230109,99291
230119,99229
230129,99312
230139,99260
230149,99363
230159,99359
230169,99407
230179,99356
230189,99440
230199,99395
230209,99513
230219,99511
230229,99622
230239,99586
230249,99692
230259,99675
230269,99772
230279,99763
230289,99861
230299,99868
230309,99945
230319,99917
230329,100045
230339,100028
230349,100115
230359,100019
230369,99998
230379,99793
230389,99683
230399,99443
230409,99348
230419,99125
230429,99067
230439,98875
230449,98842
230459,98686
230469,98694
230479,98580
230489,98613
230499,98518
230509,98582
230519,98505
230529,98614
230539,98541
230549,98621
230559,98581
230569,98687
230579,98634
230589,98758
230599,98722
230609,98846
230619,98806
230629,98915
230639,98880
230649,98959
230659,98947
230669,99006
230679,98958
230689,99054
230699,98992
230709,99088
230719,99028
230729,99125
230739,99074
230749,99146
230759,99090
230769,99178
230779,99128
230789,99218
230801,99173
230811,99267
230821,99211
230831,99326
230841,99288
230851,99371
230861,99337
230871,99428
230881,99366
230891,99471
230901,99445
230911,99530
230921,99472
230931,99572
230941,99540
230951,99664
230961,99642
230971,99773
230981,99741
230991,99864
231001,99840
231011,99947
231021,99904
231031,99934
231041,99755
231051,99671
231061,99448
231071,99341
231081,99137
231091,99067
231101,98883
231111,98838
231121,98656
231131,98621
231141,98489
231151,98511
231161,98407
231171,98468
231181,98365
231191,98462
231201,98404
231211,98474
231221,98437
231231,98522
231241,98502
231251,98612
231261,98575
231271,98690
231281,98648
231291,98777
231301,98739
231311,98828
231321,98786
231331,98900
231341,98858
231351,98957
231361,98908
231371,98987
231381,98923
231391,99004
231401,98937
231411,98991
231421,98918
231431,98971
231441,98953
231451,99011
231461,98954
231471,99054
231481,98999
231491,99123
231501,99086
231511,99185
231521,99172
231533,99257
231543,99213
231553,99316
231563,99265
231573,99346
231583,99320
231593,99421
231603,99373
231613,99471
231623,99428
231633,99532
231643,99498
231653,99591
231663,99554
231673,99684
231683,99672
231693,99787
231703,99715
231713,99738
231723,99561
231733,99464
231743,99230
231753,99144
231763,98931
231773,98844
231783,98645
231793,98611
231803,98443
231813,98443
231823,98319
231833,98356
231843,98239
231853,98299
231863,98220
231873,98274
231883,98230
231893,98301
231903,98237
231913,98317
231923,98249
231933,98351
231943,98318
231953,98437
231963,98421
231973,98541
231983,98515
231993,98629
232003,98600
232013,98715
232023,98656
232033,98715
232043,98664
232053,98732
232063,98667
232073,98747
232083,98670
232093,98750
232103,98697
232113,98778
232123,98724
232133,98802
232143,98751
232153,98856
232163,98785
232173,98874
232183,98816
232193,98925
232203,98876
232213,98985
232223,98917
232233,99023
232243,99013
232253,99127
232263,99124
232273,99226
232285,99189
232295,99283
232305,99248
232315,99344
232325,99292
232335,99404
232345,99357
232355,99469
232365,99421
232375,99476
232385,99327
232395,99261
232405,99022
232415,98933
232425,98712
232435,98679
232445,98489
232455,98433
232465,98270
232475,98218
232485,98067
232495,98075
232505,97955
232515,98008
232525,97934
232535,97973
232545,97915
232555,98007
232565,97951
232575,98010
232585,97950
232595,98045
232605,98013
232615,98120
232625,98113
232635,98222
232645,98191
232655,98312
232665,98280
232675,98382
232685,98328
232695,98428
232705,98386
232715,98469
232725,98393
232735,98476
232745,98412
232755,98492
232765,98445
232775,98513
232785,98471
232795,98563
232805,98495
232815,98584
232825,98540
232835,98629
232845,98571
232855,98677
232865,98615
232875,98719
232885,98668
232895,98759
232905,98718
232915,98837
232925,98785
232935,98915
232945,98877
232955,98961
232965,98934
232975,99027
232985,99016
232995,99157
233005,99129
233015,99232
233027,99183
233037,99301
233047,99248
233057,99284
233067,99140
233077,99067
233087,98851
233097,98755
233107,98543
233117,98464
233127,98299
233137,98230
233147,98063
233157,98037
233167,97880
233177,97896
233187,97768
233197,97820
233207,97770
233217,97825
233227,97756
233237,97824
233247,97807
233257,97894
233267,97872
233277,97949
233287,97952
233297,98062
233307,98046
233317,98149
233327,98135
233337,98200
233347,98171
233357,98266
233367,98215
233377,98311
233387,98271
233397,98368
233407,98314
233417,98359
233427,98320
233437,98411
233447,98347
233457,98404
233467,98357
233477,98440
233487,98396
233497,98497
233507,98432
233517,98527
233527,98493
233537,98587
233547,98551
233557,98653
233567,98619
233577,98688
233587,98651
233597,98736
233607,98695
233617,98795
233627,98752
233637,98834
233647,98809
233657,98911
233667,98886
233677,98992
233687,98960
233697,99065
233707,99023
233717,99134
233727,99122
233737,99211
233747,99109
233757,99109
233769,98898
233779,98811
233789,98612
233799,98496
233809,98296
233819,98217
233829,98053
233839,97990
233849,97852
233859,97835
233869,97729
233879,97746
233889,97655
233899,97665
233909,97599
233919,97686
233929,97638
233939,97728
233949,97688
233959,97787
233969,97778
233979,97879
233989,97893
233999,98003
234009,98019
234019,98079
234029,98083
234039,98152
234049,98108
234059,98208
234069,98155
234079,98225
234089,98162
234099,98247
234109,98186
234119,98234
234129,98208
234139,98287
234149,98253
234159,98332
234169,98303
234179,98366
234189,98324
234199,98386
234209,98348
234219,98429
234229,98385
234239,98472
234249,98454
234259,98545
234269,98545
234279,98628
234289,98593
234299,98683
234309,98675
234319,98741
234329,98718
234339,98797
234349,98754
234359,98853
234369,98816
234379,98926
234389,98895
234399,98993
234409,98979
234419,99072
234429,99025
234439,99043
234449,98879
234459,98813
234469,98576
234479,98501
234489,98277
234499,98195
234511,97990
234521,97944
234531,97762
234541,97728
234551,97609
234561,97622
234571,97511
234581,97536
234591,97469
234601,97533
234611,97477
234621,97533
234631,97482
234641,97540
234651,97529
234661,97650
234671,97641
234681,97758
234691,97764
234701,97855
234711,97845
234721,97936
234731,97919
234741,98037
234751,98001
234761,98067
234771,98050
234781,98125
234791,98097
234801,98154
234811,98088
234821,98156
234831,98089
234841,98169
234851,98127
234861,98199
234871,98160
234881,98249
234891,98220
234901,98313
234911,98271
234921,98341
234931,98338
234941,98408
234951,98371
234961,98483
234971,98455
234981,98551
234991,98526
235001,98616
235011,98598
235021,98688
235031,98666
235041,98744
235051,98738
235061,98834
235071,98805
235081,98893
235091,98870
235101,98972
235111,98929
235121,98961
235131,98846
235141,98757
235151,98520
235161,98435
235171,98244
235181,98144
235191,97932
235201,97874
235211,97712
235221,97689
235231,97571
235241,97579
235251,97484
235263,97493
235273,97425
235283,97470
235293,97398
235303,97458
235313,97422
235323,97465
235333,97443
235343,97546
235353,97556
235363,97657
235373,97652
235383,97753
235393,97730
235403,97860
235413,97866
235423,97964
235433,97932
235443,98015
235453,97983
235463,98052
235473,98013
235483,98094
235493,98078
235503,98110
235513,98079
235523,98159
235533,98110
235543,98180
235553,98154
235563,98196
235573,98172
235583,98224
235593,98204
235603,98289
235613,98260
235623,98341
235633,98324
235643,98412
235653,98405
235663,98500
235673,98499
235683,98584
235693,98544
235703,98629
235713,98614
235723,98705
235733,98665
235743,98755
235753,98733
235763,98835
235773,98823
235783,98927
235793,98901
235803,98981
235813,98943
235823,98930
235833,98758
235843,98671
235853,98436
235863,98331
235873,98126
235883,98011
235893,97821
235903,97758
235913,97595
235923,97564
235933,97461
235943,97455
235953,97382
235963,97432
235973,97391
235983,97452
235993,97408
236005,97491
236015,97485
236025,97519
236035,97516
236045,97584
236055,97585
236065,97672
236075,97683
236085,97770
236095,97801
236105,97878
236115,97845
236125,97930
236135,97927
236145,98027
236155,97983
236165,98069
236175,98034
236185,98083
236195,98054
236205,98088
236215,98048
236225,98124
236235,98105
236245,98158
236255,98148
236265,98221
236275,98209
236285,98272
236295,98217
236305,98304
236315,98280
236325,98370
236335,98363
236345,98445
236355,98408
236365,98509
236375,98473
236385,98562
236395,98531
236405,98610
236415,98629
236425,98702
236435,98706
236445,98787
236455,98790
236465,98873
236475,98867
236485,98959
236495,98943
236505,99010
236515,98950
236525,98939
236535,98766
236545,98642
236555,98435
236565,98318
236575,98104
236585,98016
236595,97836
236605,97777
236615,97612
236625,97573
236635,97451
236645,97451
236655,97336
236665,97380
236675,97305
236685,97348
236695,97329
236705,97402
236715,97380
236725,97464
236737,97466
236747,97570
236757,97571
236767,97665
236777,97680
236787,97772
236797,97762
236807,97852
236817,97828
236827,97913
236837,97875
236847,97954
236857,97903
236867,97966
236877,97953
236887,98032
236897,98014
236907,98105
236917,98069
236927,98157
236937,98103
236947,98164
236957,98148
236967,98227
236977,98201
236987,98262
236997,98259
237007,98348
237017,98340
237027,98437
237037,98410
237047,98469
237057,98452
237067,98531
237077,98511
237087,98602
237097,98580
237107,98663
237117,98663
237127,98748
237137,98747
237147,98841
237157,98848
237167,98919
237177,98929
237187,99001
237197,98979
237207,99075
237217,99053
237227,99067
237237,98935
237247,98820
237257,98626
237267,98498
237277,98287
237287,98180
237297,97986
237307,97877
237317,97723
237327,97654
237337,97549
237347,97541
237357,97460
237367,97480
237377,97431
237387,97488
237397,97432
237407,97473
237417,97451
237427,97533
237437,97525
237447,97637
237457,97623
237467,97730
237479,97773
237489,97888
237499,97879
237509,97993
237519,97998
237529,98069
237539,98052
237549,98086
237559,98058
237569,98123
237579,98110
237589,98167
237599,98109
237609,98159
237619,98137
237629,98213
237639,98218
237649,98289
237659,98270
237669,98330
237679,98313
237689,98381
237699,98361
237709,98435
237719,98440
237729,98494
237739,98491
237749,98581
237759,98584
237769,98661
237779,98632
237789,98686
237799,98699
237809,98759
237819,98746
237829,98838
237839,98827
237849,98912
237859,98925
237869,99006
237879,99016
237889,99091
237899,99112
237909,99158
237919,99089
237929,99038
237939,98833
237949,98682
237959,98495
237969,98381
237979,98193
237989,98093
237999,97938
238009,97860
238019,97766
238029,97705
238039,97628
238049,97619
238059,97569
238069,97565
238079,97555
238089,97576
238099,97556
238109,97593
238119,97614
238129,97674
238139,97727
238149,97799
238159,97840
238169,97903
238179,97954
238189,98054
238199,98093
238209,98164
238219,98181
238231,98220
238241,98230
238251,98244
238261,98255
238271,98263
238281,98238
238291,98287
238301,98299
238311,98313
238321,98346
238331,98369
238341,98390
238351,98394
238361,98385
238371,98437
238381,98461
238391,98498
238401,98513
238411,98571
238421,98601
238431,98652
238441,98684
238451,98747
238461,98776
238471,98798
238481,98812
238491,98871
238501,98863
238511,98924
238521,98947
238531,99003
238541,99024
238551,99087
238561,99122
238571,99156
238581,99177
238591,99237
238601,99262
238611,99310
238621,99274
238631,99220
238641,99070
238651,98915
238661,98730
238671,98545
238681,98401
238691,98249
238701,98088
238711,97986
238721,97851
238731,97783
238741,97710
238751,97659
238761,97624
238771,97615
238781,97599
238791,97622
238801,97619
238811,97649
238821,97661
238831,97703
238841,97733
238851,97769
238861,97819
238871,97912
238881,97946
238891,98006
238901,98058
238911,98082
238921,98099
238931,98156
238941,98182
238951,98214
238961,98232
238973,98243
238983,98273
238993,98284
239003,98279
239013,98280
239023,98294
239033,98310
239043,98327
239053,98336
239063,98364
239073,98400
239083,98414
239093,98412
239103,98443
239113,98476
239123,98473
239133,98527
239143,98573
239153,98607
239163,98632
239173,98686
239183,98741
239193,98782
239203,98817
239213,98860
239223,98911
239233,98951
239243,98988
239253,99024
239263,99087
239273,99121
239283,99146
239293,99159
239303,99125
239313,99029
239323,98844
239333,98670
239343,98499
239353,98348
239363,98199
239373,98043
239383,97903
239393,97791
239403,97699
239413,97611
239423,97578
239433,97534
239443,97516
239453,97516
239463,97518
239473,97515
239483,97524
239493,97503
239503,97542
239513,97570
239523,97629
239533,97673
239543,97739
239553,97777
239563,97857
239573,97895
239583,97981
239593,98007
239603,98065
239613,98055
239623,98098
239633,98112
239643,98121
239653,98116
239663,98114
239673,98126
239683,98152
239693,98163
239703,98191
239713,98213
239725,98261
239735,98274
239745,98320
239755,98307
239765,98341
239775,98339
239785,98378
239795,98375
239805,98413
239815,98417
239825,98500
239835,98496
239845,98534
239855,98557
239865,98645
239875,98642
239885,98711
239895,98740
239905,98813
239915,98846
239925,98918
239935,98936
239945,99011
239955,98982
239965,98970
239975,98788
239985,98646
239995,98442
240005,98306
240015,98137
240025,97990
240035,97814
240045,97729
240055,97602
240065,97546
240075,97453
240085,97438
240095,97381
240105,97395
240115,97358
240125,97373
240135,97366
240145,97405
240155,97402
240165,97468
240175,97487
240185,97552
240195,97579
240205,97673
240215,97699
240225,97798
240235,97785
240245,97867
240255,97865
240265,97917
240275,97919
240285,97959
240295,97954
240305,97984
240315,97976
240325,98006
240335,97989
240345,98045
240355,98013
240365,98048
240375,98058
240385,98091
240395,98085
240405,98133
240415,98128
240425,98194
240435,98217
240445,98269
240455,98267
240465,98327
240475,98330
240487,98406
240497,98401
240507,98470
240517,98474
240527,98552
240537,98564
240547,98626
240557,98636
240567,98716
240577,98750
240587,98798
240597,98744
240607,98712
240617,98530
240627,98442
240637,98252
240647,98132
240657,97956
240667,97820
240677,97675
240687,97585
240697,97483
240707,97436
240717,97342
240727,97335
240737,97265
240747,97283
240757,97245
240767,97274
240777,97232
240787,97274
240797,97267
240807,97348
240817,97356
240827,97441
240837,97465
240847,97572
240857,97584
240867,97684
240877,97672
240887,97750
240897,97743
240907,97802
240917,97796
240927,97848
240937,97833
240947,97877
240957,97848
240967,97901
240977,97865
240987,97920
240997,97884
241007,97958
241017,97929
241027,97982
241037,97962
241047,98000
241057,97978
241067,98057
241077,98033
241087,98084
241097,98079
241107,98153
241117,98132
241127,98196
241137,98200
241147,98274
241157,98268
241167,98324
241177,98341
241187,98425
241197,98442
241207,98526
241217,98537
241229,98605
241239,98601
241249,98613
241259,98495
241269,98397
241279,98200
241289,98073
241299,97871
241309,97778
241319,97620
241329,97534
241339,97385
241349,97324
241359,97219
241369,97219
241379,97164
241389,97202
241399,97154
241409,97200
241419,97155
241429,97219
241439,97168
241449,97259
241459,97237
241469,97320
241479,97288
241489,97377
241499,97409
241509,97481
241519,97499
241529,97563
241539,97572
241549,97654
241559,97645
241569,97715
241579,97697
241589,97767
241599,97713
241609,97758
241619,97724
241629,97769
241639,97730
241649,97790
241659,97743
241669,97827
241679,97802
241689,97886
241699,97876
241709,97944
241719,97949
241729,98016
241739,97992
241749,98058
241759,98046
241769,98125
241779,98082
241789,98168
241799,98165
241809,98242
241819,98237
241829,98304
241839,98310
241849,98363
241859,98353
241869,98437
241879,98451
241889,98498
241899,98431
241909,98418
241919,98260
241929,98179
241939,98010
241949,97924
241959,97741
241971,97684
241981,97516
241991,97453
242001,97324
242011,97296
242021,97206
242031,97208
242041,97134
242051,97165
242061,97119
242071,97165
242081,97115
242091,97155
242101,97103
242111,97185
242121,97181
242131,97276
242141,97307
242151,97378
242161,97396
242171,97491
242181,97483
242191,97576
242201,97560
242211,97638
242221,97616
242231,97691
242241,97660
242251,97723
242261,97665
242271,97706
242281,97666
242291,97724
242301,97686
242311,97746
242321,97725
242331,97817
242341,97790
242351,97864
242361,97844
242371,97928
242381,97906
242391,97996
242401,97974
242411,98056
242421,98031
242431,98123
242441,98077
242451,98145
242461,98136
242471,98224
242481,98189
242491,98278
242501,98272
242511,98365
242521,98350
242531,98447
242541,98437
242551,98534
242561,98521
242571,98566
242581,98486
242591,98421
242601,98242
242611,98157
242621,97969
242631,97897
242641,97706
242651,97647
242661,97510
242671,97527
242681,97423
242691,97444
242701,97348
242713,97397
242723,97320
242733,97355
242743,97287
242753,97354
242763,97300
242773,97350
242783,97332
242793,97422
242803,97406
242813,97518
242823,97478
242833,97602
242843,97547
242853,97670
242863,97673
242873,97777
242883,97744
242893,97859
242903,97839
242913,97902
242923,97835
242933,97893
242943,97827
242953,97889
242963,97850
242973,97931
242983,97880
242993,97981
243003,97915
243013,98000
243023,97954
243033,98036
243043,98001
243053,98102
243063,98074
243073,98165
243083,98122
243093,98230
243103,98177
243113,98268
243123,98223
243133,98321
243143,98287
243153,98387
243163,98347
243173,98448
243183,98420
243193,98518
243203,98528
243213,98599
243223,98570
243233,98655
243243,98617
243253,98712
243263,98663
243273,98739
243283,98622
243293,98552
243303,98333
243313,98267
243323,98042
243333,97978
243343,97807
243353,97795
243363,97664
243373,97654
243383,97552
243393,97601
243403,97486
243413,97564
243423,97492
243433,97575
243443,97503
243455,97600
243465,97541
243475,97615
243485,97570
243495,97680
243505,97634
243515,97728
243525,97709
243535,97820
243545,97782
243555,97868
243565,97839
243575,97918
243585,97873
243595,97957
243605,97931
243615,98015
243625,97955
243635,98042
243645,97992
243655,98083
243665,98051
243675,98124
243685,98074
243695,98135
243705,98083
243715,98161
243725,98104
243735,98190
243745,98145
243755,98220
243765,98188
243775,98276
243785,98243
243795,98354
243805,98308
243815,98432
243825,98392
243835,98498
243845,98438
243855,98537
243865,98508
243875,98585
243885,98563
243895,98648
243905,98615
243915,98705
243925,98682
243935,98786
243945,98747
243955,98821
243965,98722
243975,98709
243985,98518
243995,98442
244005,98237
244015,98172
244025,97989
244035,97962
244045,97812
244055,97812
244065,97667
244075,97704
244085,97598
244095,97636
244105,97564
244115,97623
244125,97562
244135,97627
244145,97579
244155,97699
244165,97654
244175,97733
244187,97701
244197,97793
244207,97749
244217,97859
244227,97820
244237,97943
244247,97867
244257,97989
244267,97939
244277,98030
244287,97968
244297,98045
244307,97956
244317,98041
244327,98002
244337,98078
244347,98030
244357,98123
244367,98059
244377,98153
244387,98090
244397,98183
244407,98131
244417,98257
244427,98176
244437,98296
244447,98262
244457,98367
244467,98314
244477,98421
244487,98353
244497,98460
244507,98418
244517,98528
244527,98462
244537,98564
244547,98516
244557,98626
244567,98591
244577,98695
244587,98633
244597,98769
244607,98718
244617,98820
244627,98794
244637,98902
244647,98853
244657,98926
244667,98818
244677,98787
244687,98601
244697,98518
244707,98326
244717,98267
244727,98070
244737,98036
244747,97881
244757,97893
244767,97753
244777,97766
244787,97658
244797,97729
244807,97648
244817,97719
244827,97672
244837,97751
244847,97701
244857,97777
244867,97742
244877,97844
244887,97819
244897,97946
244909,97911
244919,98029
244929,98014
244939,98103
244949,98073
244959,98167
244969,98105
244979,98203
244989,98126
244999,98203
245009,98176
245019,98218
245029,98143
245039,98225
245049,98151
245059,98240
245069,98209
245079,98301
245089,98237
245099,98357
245109,98311
245119,98393
245129,98346
245139,98463
245149,98399
245159,98499
245169,98445
245179,98545
245189,98500
245199,98597
245209,98526
245219,98663
245229,98627
245239,98734
245249,98693
245259,98804
245269,98765
245279,98856
245289,98804
245299,98914
245309,98845
245319,98961
245329,98938
245339,99039
245349,99001
245359,99124
245369,99098
245379,99173
245389,99062
245399,99053
245409,98838
245419,98757
245429,98544
245439,98486
245449,98298
245459,98267
245469,98099
245479,98100
245489,97949
245499,97972
245509,97868
245519,97929
245529,97854
245539,97904
245549,97846
245559,97929
245569,97867
245579,97963
245589,97912
245599,98022
245609,98025
245619,98129
245629,98132
245641,98227
245651,98202
245661,98304
245671,98273
245681,98372
245691,98339
245701,98410
245711,98361
245721,98430
245731,98383
245741,98444
245751,98365
245761,98446
245771,98385
245781,98460
245791,98415
245801,98526
245811,98491
245821,98572
245831,98542
245841,98638
245851,98576
245861,98689
245871,98630
245881,98706
245891,98675
245901,98751
245911,98716
245921,98817
245931,98748
245941,98855
245951,98814
245961,98909
245971,98886
245981,98979
245991,98931
246001,99033
246011,99004
246021,99103
246031,99055
246041,99169
246051,99142
246061,99244
246071,99220
246081,99315
246091,99253
246101,99255
246111,99081
246121,98993
246131,98784
246141,98704
246151,98513
246161,98450
246171,98263
246181,98243
246191,98113
246201,98086
246211,97984
246221,98011
246231,97928
246241,97987
246251,97923
246261,97978
246271,97950
246281,98029
246291,97992
246301,98051
246311,98016
246321,98120
246331,98125
246341,98221
246351,98223
246361,98350
246371,98325
246383,98426
246393,98396
246403,98453
246413,98425
246423,98487
246433,98436
246443,98505
246453,98452
246463,98517
246473,98488
246483,98525
246493,98455
246503,98526
246513,98469
246523,98574
246533,98522
246543,98642
246553,98613
246563,98727
246573,98695
246583,98782
246593,98754
246603,98849
246613,98817
246623,98896
246633,98867
246643,98949
246653,98930
246663,99034
246673,98991
246683,99102
246693,99058
246703,99142
246713,99109
246723,99213
246733,99196
246743,99306
246753,99294
246763,99397
246773,99354
246783,99368
246793,99195
246803,99086
246813,98878
246823,98781
246833,98590
246843,98537
246853,98350
246863,98295
246873,98157
246883,98161
246893,98044
246903,98068
246913,97977
246923,98029
246933,97967
246943,98016
246953,97955
246963,98038
246973,97975
246983,98067
246993,98034
247003,98135
247013,98111
247023,98230
247033,98213
247043,98296
247053,98295
247063,98364
247073,98378
247083,98473
247093,98460
247103,98534
247115,98497
247125,98571
247135,98534
247145,98590
247155,98554
247165,98603
247175,98543
247185,98625
247195,98561
247205,98663
247215,98616
247225,98670
247235,98651
247245,98701
247255,98719
247265,98788
247275,98794
247285,98869
247295,98856
247305,98943
247315,98937
247325,99017
247335,98996
247345,99070
247355,99058
247365,99141
247375,99130
247385,99212
247395,99174
247405,99267
247415,99254
247425,99342
247435,99332
247445,99430
247455,99445
247465,99518
247475,99444
247485,99417
247495,99205
247505,99094
247515,98865
247525,98784
247535,98606
247545,98523
247555,98364
247565,98341
247575,98205
247585,98208
247595,98093
247605,98143
247615,98063
247625,98096
247635,98037
247645,98104
247655,98077
247665,98134
247675,98093
247685,98167
247695,98153
247705,98235
247715,98241
247725,98333
247735,98338
247745,98446
247755,98439
247765,98523
247775,98504
247785,98571
247795,98555
247805,98637
247815,98627
247825,98669
247835,98630
247847,98694
247857,98649
247867,98708
247877,98680
247887,98750
247897,98704
247907,98766
247917,98737
247927,98802
247937,98780
247947,98848
247957,98814
247967,98883
247977,98846
247987,98946
247997,98926
248007,99023
248017,98997
248027,99076
248037,99059
248047,99148
248057,99130
248067,99225
248077,99207
248087,99291
248097,99296
248107,99414
248117,99398
248127,99484
248137,99453
248147,99537
248157,99509
248167,99570
248177,99449
248187,99360
248197,99153
248207,99036
248217,98858
248227,98765
248237,98591
248247,98517
248257,98354
248267,98311
248277,98185
248287,98155
248297,98063
248307,98075
248317,98006
248327,98062
248337,98046
248347,98100
248357,98075
248367,98147
248377,98135
248387,98210
248397,98205
248407,98291
248417,98275
248427,98364
248437,98365
248447,98447
248457,98430
248467,98499
248477,98516
248487,98544
248497,98527
248507,98579
248517,98537
248527,98617
248537,98600
248547,98638
248557,98618
248569,98669
248579,98651
248589,98703
248599,98676
248609,98715
248619,98698
248629,98759
248639,98738
248649,98805
248659,98798
248669,98851
248679,98840
248689,98891
248699,98880
248709,98966
248719,98982
248729,99054
248739,99049
248749,99139
248759,99145
248769,99218
248779,99234
248789,99323
248799,99327
248809,99398
248819,99386
248829,99429
248839,99321
248849,99239
248859,99033
248869,98918
248879,98731
248889,98611
248899,98448
248909,98355
248919,98217
248929,98131
248939,98021
248949,97989
248959,97929
248969,97911
248979,97845
248989,97876
248999,97845
249009,97889
249019,97881
249029,97926
249039,97948
249049,98015
249059,98026
249069,98113
249079,98113
249089,98196
249099,98216
249109,98275
249119,98281
249129,98342
249139,98319
249149,98382
249159,98367
249169,98396
249179,98407
249189,98431
249199,98432
249209,98453
249219,98459
249229,98482
249239,98478
249249,98489
249259,98507
249269,98543
249279,98571
249289,98631
249299,98644
249309,98695
249321,98715
249331,98763
249341,98769
249351,98825
249361,98829
249371,98864
249381,98859
249391,98929
249401,98933
249411,99005
249421,98985
249431,99046
249441,99039
249451,99114
249461,99178
249471,99218
249481,99261
249491,99244
249501,99145
249511,99019
249521,98865
249531,98735
249541,98572
249551,98453
249561,98271
249571,98170
249581,98051
249591,97955
249601,97884
249611,97842
249621,97787
249631,97787
249641,97744
249651,97761
249661,97762
249671,97786
249681,97788
249691,97832
249701,97861
249711,97914
249721,97940
249731,97995
249741,98032
249751,98098
249761,98140
249771,98174
249781,98225
249791,98259
249801,98291
249811,98308
249821,98327
249831,98331
249841,98345
249851,98351
249861,98360
249871,98365
249881,98377
249891,98379
249901,98396
249911,98430
249921,98428
249931,98454
249941,98470
249951,98491
249961,98502
249971,98541
249981,98556
249991,98594
250001,98632
250011,98682
250021,98716
250031,98745
250041,98810
250053,98845
250063,98872
250073,98927
250083,98974
250093,98985
250103,99034
250113,99031
250123,99088
250133,99088
250143,99058
250153,98912
250163,98769
250173,98596
250183,98468
250193,98316
250203,98193
250213,98070
250223,97987
250233,97874
250243,97828
250253,97733
250263,97714
250273,97678
250283,97672
250293,97640
250303,97631
250313,97643
250323,97675
250333,97678
250343,97707
250353,97747
250363,97778
250373,97815
250383,97869
250393,97919
250403,97981
250413,98005
250423,98092
250433,98090
250443,98157
250453,98153
250463,98186
250473,98149
250483,98191
250493,98177
250503,98206
250513,98184
250523,98224
250533,98209
250543,98262
250553,98253
250563,98304
250573,98293
250583,98351
250593,98351
250603,98386
250613,98366
250623,98407
250633,98411
250643,98438
250653,98454
250663,98501
250673,98488
250683,98555
250693,98563
250703,98627
250713,98636
250723,98688
250733,98710
250743,98775
250753,98805
250763,98879
250773,98907
250783,98891
250795,98791
250805,98694
250815,98528
250825,98392
250835,98203
250845,98097
250855,97912
250865,97815
250875,97657
250885,97606
250895,97491
250905,97421
250915,97355
250925,97342
250935,97300
250945,97354
250955,97325
250965,97388
250975,97402
250985,97445
250995,97462
251005,97528
251015,97558
251025,97628
251035,97653
251045,97713
251055,97719
251065,97794
251075,97797
251085,97853
251095,97828
251105,97864
251115,97834
251125,97876
251135,97870
251145,97901
251155,97883
251165,97937
251175,97914
251185,97975
251195,97974
251205,98021
251215,98002
251225,98050
251235,98048
251245,98110
251255,98119
251265,98152
251275,98153
251285,98214
251295,98187
251305,98274
251315,98259
251325,98321
251335,98296
251345,98377
251355,98400
251365,98448
251375,98464
251385,98535
251395,98533
251405,98602
251415,98566
251425,98512
251435,98373
251445,98298
251455,98113
251465,97984
251475,97796
251485,97662
251495,97510
251505,97435
251515,97298
251525,97250
251537,97149
251547,97145
251557,97054
251567,97069
251577,97035
251587,97067
251597,97032
251607,97077
251617,97058
251627,97135
251637,97129
251647,97216
251657,97206
251667,97268
251677,97304
251687,97399
251697,97423
251707,97521
251717,97511
251727,97601
251737,97597
251747,97648
251757,97641
251767,97691
251777,97652
251787,97696
251797,97685
251807,97745
251817,97734
251827,97759
251837,97749
251847,97805
251857,97779
251867,97838
251877,97818
251887,97888
251897,97867
251907,97956
251917,97946
251927,98024
251937,98016
251947,98106
251957,98115
251967,98155
251977,98150
251987,98244
251997,98238
252007,98320
252017,98314
252027,98402
252037,98403
252047,98465
252057,98428
252067,98394
252077,98264
252087,98171
252097,97953
252107,97856
252117,97630
252127,97522
252137,97319
252147,97221
252157,97080
252167,97029
252177,96927
252187,96922
252197,96845
252207,96885
252217,96845
252227,96890
252237,96870
252247,96936
252257,96908
252269,96977
252279,96978
252289,97057
252299,97073
252309,97146
252319,97173
252329,97272
252339,97276
252349,97351
252359,97368
252369,97468
252379,97443
252389,97489
252399,97453
252409,97522
252419,97497
252429,97589
252439,97529
252449,97595
252459,97589
252469,97649
252479,97639
252489,97714
252499,97675
252509,97759
252519,97712
252529,97790
252539,97761
252549,97851
252559,97835
252569,97904
252579,97886
252589,97965
252599,97956
252609,98042
252619,98048
252629,98127
252639,98114
252649,98198
252659,98180
252669,98281
252679,98284
252689,98366
252699,98343
252709,98418
252719,98307
252729,98236
252739,98066
252749,97947
252759,97733
252769,97638
252779,97421
252789,97321
252799,97135
252809,97093
252819,96957
252829,96951
252839,96851
252849,96864
252859,96764
252869,96808
252879,96752
252889,96793
252899,96765
252909,96842
252919,96820
252929,96916
252939,96912
252949,97027
252959,97013
252969,97137
252979,97139
252989,97245
253001,97243
253011,97339
253021,97307
253031,97391
253041,97348
253051,97395
253061,97377
253071,97447
253081,97381
253091,97454
253101,97430
253111,97485
253121,97438
253131,97512
253141,97482
253151,97577
253161,97556
253171,97661
253181,97639
253191,97718
253201,97705
253211,97782
253221,97766
253231,97834
253241,97820
253251,97908
253261,97887
253271,97985
253281,97959
253291,98033
253301,98014
253311,98110
253321,98097
253331,98204
253341,98188
253351,98302
253361,98268
253371,98332
253381,98229
253391,98171
253401,97957
253411,97867
253421,97652
253431,97548
253441,97305
253451,97242
253461,97061
253471,97011
253481,96865
253491,96843
253501,96722
253511,96714
253521,96629
253531,96662
253541,96594
253551,96668
253561,96611
253571,96673
253581,96644
253591,96731
253601,96732
253611,96820
253621,96816
253631,96918
253641,96904
253651,97017
253661,96997
253671,97088
253681,97050
253691,97146
253701,97127
253711,97208
253721,97154
253733,97224
253743,97185
253753,97258
253763,97198
253773,97281
253783,97248
253793,97313
253803,97264
253813,97362
253823,97327
253833,97428
253843,97364
253853,97466
253863,97426
253873,97545
253883,97498
253893,97625
253903,97607
253913,97704
253923,97687
253933,97800
253943,97793
253953,97887
253963,97892
253973,97999
253983,97970
253993,98090
254003,98051
254013,98137
254023,98073
254033,98069
254043,97906
254053,97839
254063,97607
254073,97524
254083,97301
254093,97225
254103,97007
254113,96940
254123,96787
254133,96798
254143,96629
254153,96642
254163,96549
254173,96590
254183,96491
254193,96541
254203,96473
254213,96546
254223,96489
254233,96609
254243,96580
254253,96682
254263,96686
254273,96802
254283,96790
254293,96916
254303,96887
254313,96991
254323,96966
254333,97060
254343,97036
254353,97114
254363,97090
254373,97178
254383,97114
254393,97204
254403,97150
254413,97248
254423,97226
254433,97318
254443,97269
254455,97360
254465,97333
254475,97418
254485,97391
254495,97480
254505,97451
254515,97523
254525,97499
254535,97598
254545,97589
254555,97686
254565,97641
254575,97748
254585,97702
254595,97817
254605,97810
254615,97929
254625,97929
254635,98058
254645,98052
254655,98156
254665,98128
254675,98234
254685,98197
254695,98252
254705,98119
254715,98066
254725,97859
254735,97782
254745,97551
254755,97448
254765,97212
254775,97141
254785,96940
254795,96907
254805,96743
254815,96766
254825,96637
254835,96691
254845,96596
254855,96649
254865,96585
254875,96651
254885,96595
254895,96700
254905,96674
254915,96787
254925,96751
254935,96890
254945,96892
254955,97023
254965,97019
254975,97125
254985,97127
254995,97238
255005,97209
255015,97263
255025,97225
255035,97307
255045,97253
255055,97330
255065,97268
255075,97371
255085,97305
255095,97402
255105,97366
255115,97460
255125,97394
255135,97478
255145,97444
255155,97572
255165,97522
255175,97653
255187,97619
255197,97740
255207,97700
255217,97807
255227,97753
255237,97868
255247,97822
255257,97918
255267,97904
255277,98016
255287,97992
255297,98105
255307,98039
255317,98172
255327,98149
255337,98308
255347,98290
255357,98405
255367,98365
255377,98418
255387,98264
255397,98204
255407,97982
255417,97893
255427,97670
255437,97572
255447,97363
255457,97300
255467,97105
255477,97061
255487,96922
255497,96923
255507,96809
255517,96856
255527,96793
255537,96852
255547,96781
255557,96867
255567,96814
255577,96927
255587,96883
255597,97014
255607,96993
255617,97125
255627,97114
255637,97223
255647,97205
255657,97335
255667,97306
255677,97410
255687,97387
255697,97466
255707,97410
255717,97513
255727,97430
255737,97522
255747,97468
255757,97550
255767,97483
255777,97569
255787,97501
255797,97603
255807,97534
255817,97618
255827,97597
255837,97686
255847,97656
255857,97767
255867,97745
255877,97850
255887,97832
255897,97946
255907,97913
255919,98032
255929,97990
255939,98067
255949,98048
255959,98153
255969,98121
255979,98214
255989,98175
255999,98284
256009,98268
256019,98379
256029,98325
256039,98408
256049,98282
256059,98271
256069,98072
256079,97998
256089,97762
256099,97678
256109,97480
256119,97376
256129,97206
256139,97169
256149,97020
256159,97005
256169,96900
256179,96954
256189,96859
256199,96911
256209,96859
256219,96933
256229,96893
256239,96987
256249,96920
256259,97059
256269,97013
256279,97148
256289,97141
256299,97255
256309,97246
256319,97380
256329,97360
256339,97460
256349,97430
256359,97532
256369,97475
256379,97569
256389,97521
256399,97597
256409,97546
256419,97632
256429,97587
256439,97679
256449,97626
256459,97726
256469,97688
256479,97770
256489,97730
256499,97800
256509,97774
256519,97873
256529,97816
256539,97931
256549,97877
256559,98019
256569,97980
256579,98088
256589,98043
256599,98145
256609,98133
256619,98255
256629,98246
256639,98391
256651,98353
256661,98467
256671,98453
256681,98566
256691,98561
256701,98644
256711,98556
256721,98532
256731,98325
256741,98249
256751,97985
256761,97887
256771,97667
256781,97588
256791,97415
256801,97402
256811,97248
256821,97278
256831,97155
256841,97219
256851,97132
256861,97181
256871,97122
256881,97210
256891,97133
256901,97224
256911,97186
256921,97271
256931,97256
256941,97361
256951,97342
256961,97461
256971,97446
256981,97585
256991,97557
257001,97689
257011,97653
257021,97741
257031,97714
257041,97800
257051,97755
257061,97821
257071,97774
257081,97851
257091,97791
257101,97884
257111,97837
257121,97925
257131,97881
257141,97967
257151,97953
257161,98026
257171,97999
257181,98100
257191,98054
257201,98147
257211,98112
257221,98220
257231,98163
257241,98269
257251,98221
257261,98333
257271,98304
257281,98413
257291,98377
257301,98500
257311,98473
257321,98579
257331,98560